#Parameters = {h=1.5; l=55; n=18.5; w=50; wp=3; x=13}
#"Frequency / GHz"	"S1,1 (32) [Magnitude / dB]"
#----------------------------------------------
1.0000000000000	-0.47124197196728
1.0089999437332	-0.46044028424855
1.0180000066757	-0.45178968960191
1.0269999504089	-0.44536687950322
1.0360000133514	-0.44124706434575
1.0449999570847	-0.43950227999185
1.0540000200272	-0.44020379824315
1.0629999637604	-0.44341989877640
1.0720000267029	-0.44921784970013
1.0809999704361	-0.45766164476940
1.0900000333786	-0.46881434840636
1.0989999771118	-0.48274047080306
1.1080000400543	-0.49949965284137
1.1169999837875	-0.51915386606471
1.1260000467300	-0.54176319779875
1.1349999904633	-0.56738910386693
1.1440000534058	-0.59609067743040
1.1529999971390	-0.62792798090461
1.1619999408722	-0.66296283167513
1.1710000038147	-0.70125482745366
1.1799999475479	-0.74286722587408
1.1890000104904	-0.78785892089631
1.1979999542236	-0.83629761110645
1.2070000171661	-0.88824324649791
1.2159999608994	-0.94376398889233
1.2250000238419	-1.0029269092911
1.2339999675751	-1.0657994001175
1.2430000305176	-1.1324502467732
1.2519999742508	-1.2029533781455
1.2610000371933	-1.2773798751575
1.2699999809265	-1.3558087574835
1.2790000438690	-1.4383144729630
1.2879999876022	-1.5249774443561
1.2970000505447	-1.6158817060997
1.3059999942780	-1.7111115804202
1.3150000572205	-1.8107544312844
1.3240000009537	-1.9149024354593
1.3329999446869	-2.0236473330435
1.3420000076294	-2.1370862596382
1.3509999513626	-2.2553205973751
1.3600000143051	-2.3784550284232
1.3689999580383	-2.5065951634332
1.3780000209808	-2.6398530492176
1.3869999647141	-2.7783458573869
1.3960000276566	-2.9221931361347
1.4049999713898	-3.0715192927290
1.4140000343323	-3.2264552235058
1.4229999780655	-3.3871377625992
1.4320000410080	-3.5537060783846
1.4409999847412	-3.7263059895762
1.4500000476837	-3.9050924452918
1.4589999914169	-4.0902221210417
1.4680000543594	-4.2818650466672
1.4769999980927	-4.4801916008449
1.4859999418259	-4.6853823225642
1.4950000047684	-4.8976249080246
1.5039999485016	-5.1171172544654
1.5130000114441	-5.3440612069283
1.5219999551773	-5.5786671072373
1.5310000181198	-5.8211555750669
1.5399999618530	-6.0717518787660
1.5490000247955	-6.3306887959334
1.5579999685287	-6.5982040484330
1.5670000314713	-6.8745398622408
1.5759999752045	-7.1599402666141
1.5850000381470	-7.4546460280700
1.5939999818802	-7.7588979441483
1.6030000448227	-8.0729181363206
1.6119999885559	-8.3969141312733
1.6210000514984	-8.7310652151384
1.6299999952316	-9.0755087392753
1.6390000581741	-9.4303199310960
1.6480000019073	-9.7954973135188
1.6569999456406	-10.170924352481
1.6660000085831	-10.556336821264
1.6749999523163	-10.951278250864
1.6840000152588	-11.355032763016
1.6929999589920	-11.766555034071
1.7020000219345	-12.184373557209
1.7109999656677	-12.606488408728
1.7200000286102	-13.030238933279
1.7289999723434	-13.452170912172
1.7380000352859	-13.867906850574
1.7469999790192	-14.272033302717
1.7560000419617	-14.658063201368
1.7649999856949	-15.018488501968
1.7740000486374	-15.345016420628
1.7829999923706	-15.629003456434
1.7920000553131	-15.862114330271
1.8009999990463	-16.037143249483
1.8099999427795	-16.148877847973
1.8190000057220	-16.194800838371
1.8279999494553	-16.175461209037
1.8370000123978	-16.094376539589
1.8459999561310	-15.957536532841
1.8550000190735	-15.772614107621
1.8639999628067	-15.548092201892
1.8730000257492	-15.292493768062
1.8819999694824	-15.013808907803
1.8910000324249	-14.719130054188
1.8999999761581	-14.414493957084
1.9090000391006	-14.104868105832
1.9179999828339	-13.794224799783
1.9270000457764	-13.485652337489
1.9359999895096	-13.181500472516
1.9450000524521	-12.883507247118
1.9539999961853	-12.592923549220
1.9630000591278	-12.310609351989
1.9720000028610	-12.037127596340
1.9809999465942	-11.772806838062
1.9900000095367	-11.517801769794
1.9989999532700	-11.272128861433
2.0079998970032	-11.035710237931
2.0169999599457	-10.808396557211
2.0260000228882	-10.589985912817
2.0350000858307	-10.380236360655
2.0439999103546	-10.178888400293
2.0529999732971	-9.9856634595464
2.0620000362396	-9.8002738184142
2.0710000991821	-9.6224310700456
2.0799999237061	-9.4518452026946
2.0889999866486	-9.2882306095434
2.0980000495911	-9.1313079949223
2.1070001125336	-8.9808005340245
2.1159999370575	-8.8364434200153
2.1250000000000	-8.6979759913364
2.1340000629425	-8.5651479121524
2.1429998874664	-8.4377164835841
2.1519999504089	-8.3154480737415
2.1610000133514	-8.1981157816367
2.1700000762939	-8.0855036194172
2.1789999008179	-7.9774013904101
2.1879999637604	-7.8736059379662
2.1970000267029	-7.7739219083782
2.2060000896454	-7.6781617834050
2.2149999141693	-7.5861441874362
2.2239999771118	-7.4976934945686
2.2330000400543	-7.4126411256738
2.2420001029968	-7.3308238827912
2.2509999275208	-7.2520850533941
2.2599999904633	-7.1762716731521
2.2690000534058	-7.1032380744487
2.2780001163483	-7.0328421847590
2.2869999408722	-6.9649480134580
2.2960000038147	-6.8994234790310
2.3050000667572	-6.8361398942331
2.3139998912811	-6.7749751085595
2.3229999542236	-6.7158107484946
2.3320000171661	-6.6585334991734
2.3410000801086	-6.6030324268910
2.3499999046326	-6.5492005099686
2.3589999675751	-6.4969376988788
2.3680000305176	-6.4461458528315
2.3770000934601	-6.3967314267659
2.3859999179840	-6.3486026230850
2.3949999809265	-6.3016751388192
2.4040000438690	-6.2558657486105
2.4130001068115	-6.2110958721889
2.4219999313354	-6.1672925749220
2.4309999942780	-6.1243828290350
2.4400000572205	-6.0823014436468
2.4489998817444	-6.0409823542258
2.4579999446869	-6.0003699688829
2.4670000076294	-5.9604033619489
2.4760000705719	-5.9210320627361
2.4849998950958	-5.8822073460264
2.4939999580383	-5.8438832833274
2.5030000209808	-5.8060167847156
2.5120000839233	-5.7685689424840
2.5209999084473	-5.7315044288616
2.5299999713898	-5.6947905318464
2.5390000343323	-5.6583978810396
2.5480000972748	-5.6222996343139
2.5569999217987	-5.5864708517065
2.5659999847412	-5.5508933780203
2.5750000476837	-5.5155487049247
2.5840001106262	-5.4804172512612
2.5929999351501	-5.4454897160563
2.6019999980927	-5.4107552169857
2.6110000610352	-5.3762023590385
2.6199998855591	-5.3418261548888
2.6289999485016	-5.3076218971141
2.6380000114441	-5.2735860903828
2.6470000743866	-5.2397178496205
2.6559998989105	-5.2060170757296
2.6649999618530	-5.1724861197423
2.6740000247955	-5.1391258524529
2.6830000877380	-5.1059439428980
2.6919999122620	-5.0729404934661
2.7009999752045	-5.0401254248258
2.7100000381470	-5.0075053258733
2.7190001010895	-4.9750847245702
2.7279999256134	-4.9428727042983
2.7369999885559	-4.9108778357890
2.7460000514984	-4.8791086678492
2.7550001144409	-4.8475719774538
2.7639999389648	-4.8162809800001
2.7730000019073	-4.7852382030697
2.7820000648499	-4.7544584503697
2.7909998893738	-4.7239478094444
2.7999999523163	-4.6937114534165
2.8090000152588	-4.6637621959906
2.8180000782013	-4.6341041090377
2.8269999027252	-4.6047472373114
2.8359999656677	-4.5756957278549
2.8450000286102	-4.5469561471350
2.8540000915527	-4.5185354579012
2.8629999160767	-4.4904359334940
2.8719999790192	-4.4626632854282
2.8810000419617	-4.4352196836848
2.8900001049042	-4.4081091019635
2.8989999294281	-4.3813350964837
2.9079999923706	-4.3548955031456
2.9170000553131	-4.3287911608471
2.9260001182556	-4.3030255052409
2.9349999427795	-4.2775919077803
2.9440000057220	-4.2524909316758
2.9530000686646	-4.2277209215080
2.9619998931885	-4.2032770226173
2.9709999561310	-4.1791559676565
2.9800000190735	-4.1553515230298
2.9890000820160	-4.1318590737043
2.9979999065399	-4.1086709147558
3.0069999694824	-4.0857823598537
3.0160000324249	-4.0631834171745
3.0250000953674	-4.0408652622693
3.0339999198914	-4.0188226400414
3.0429999828339	-3.9970427605414
3.0520000457764	-3.9755166107592
3.0610001087189	-3.9542358372430
3.0699999332428	-3.9331856737301
3.0789999961853	-3.9123572632860
3.0880000591278	-3.8917399995690
3.0969998836517	-3.8713197450304
3.1059999465942	-3.8510850056920
3.1150000095367	-3.8310262980083
3.1240000724792	-3.8111274476595
3.1329998970032	-3.7913770258930
3.1419999599457	-3.7717639449396
3.1510000228882	-3.7522733322738
3.1600000858307	-3.7328951079645
3.1689999103546	-3.7136151084239
3.1779999732971	-3.6944213373770
3.1870000362396	-3.6753016874148
3.1960000991821	-3.6562454034033
3.2049999237061	-3.6372406703634
3.2139999866486	-3.6182740914452
3.2230000495911	-3.5993376888103
3.2320001125336	-3.5804200249939
3.2409999370575	-3.5615101375913
3.2500000000000	-3.5426008584353
3.2590000629425	-3.5236799139798
3.2679998874664	-3.5047435894391
3.2769999504089	-3.4857793749495
3.2860000133514	-3.4667854278233
3.2950000762939	-3.4477510286488
3.3039999008179	-3.4286726546642
3.3129999637604	-3.4095455859725
3.3220000267029	-3.3903651618922
3.3310000896454	-3.3711285322098
3.3399999141693	-3.3518316973181
3.3489999771118	-3.3324759279962
3.3580000400543	-3.3130580970690
3.3670001029968	-3.2935784800229
3.3759999275208	-3.2740383981224
3.3849999904633	-3.2544395349681
3.3940000534058	-3.2347852543492
3.4030001163483	-3.2150767981183
3.4119999408722	-3.1953206735118
3.4210000038147	-3.1755216766759
3.4300000667572	-3.1556843940537
3.4389998912811	-3.1358150880312
3.4479999542236	-3.1159235632605
3.4570000171661	-3.0960159670848
3.4660000801086	-3.0761010175845
3.4749999046326	-3.0561906999546
3.4839999675751	-3.0362934680889
3.4930000305176	-3.0164205623851
3.5020000934601	-2.9965850733955
3.5109999179840	-2.9767965410797
3.5199999809265	-2.9570715614139
3.5290000438690	-2.9374207332485
3.5380001068115	-2.9178587206904
3.5469999313354	-2.8984026146794
3.5559999942780	-2.8790628591226
3.5650000572205	-2.8598574940284
3.5739998817444	-2.8408019417231
3.5829999446869	-2.8219117035088
3.5920000076294	-2.8032034127898
3.6010000705719	-2.7846924940513
3.6099998950958	-2.7663986646820
3.6189999580383	-2.7483381364120
3.6280000209808	-2.7305257046644
3.6370000839233	-2.7129832024449
3.6459999084473	-2.6957235523724
3.6549999713898	-2.6787679841031
3.6640000343323	-2.6621311103680
3.6730000972748	-2.6458330405112
3.6819999217987	-2.6298912493086
3.6909999847412	-2.6143241492383
3.7000000476837	-2.5991458945571
3.7090001106262	-2.5843771023906
3.7179999351501	-2.5700343648564
3.7269999980927	-2.5561361476373
3.7360000610352	-2.5426967826996
3.7449998855591	-2.5297363234308
3.7539999485016	-2.5172697476368
3.7630000114441	-2.5053150685248
3.7720000743866	-2.4938878999547
3.7809998989105	-2.4830042498302
3.7899999618530	-2.4726803959351
3.7990000247955	-2.4629320785572
3.8080000877380	-2.4537752632230
3.8169999122620	-2.4452246034070
3.8259999752045	-2.4372927206004
3.8350000381470	-2.4299981568182
3.8440001010895	-2.4233530679937
3.8529999256134	-2.4173712489450
3.8619999885559	-2.4120672222906
3.8710000514984	-2.4074530498902
3.8800001144409	-2.4035423097458
3.8889999389648	-2.4003456526574
3.8980000019073	-2.3978763547336
3.9070000648499	-2.3961472737898
3.9159998893738	-2.3951693912496
3.9249999523163	-2.3949533560467
3.9340000152588	-2.3955090073220
3.9430000782013	-2.3968466392050
3.9519999027252	-2.3989751619234
3.9609999656677	-2.4019067833737
3.9700000286102	-2.4056467287573
3.9790000915527	-2.4102059060192
3.9879999160767	-2.4155911937080
3.9969999790192	-2.4218113936712
4.0060000419617	-2.4288713266852
4.0149998664856	-2.4367783071667
4.0240001678467	-2.4455381377615
4.0329999923706	-2.4551580731625
4.0419998168945	-2.4656402298639
4.0510001182556	-2.4769923616055
4.0599999427795	-2.4892167150673
4.0689997673035	-2.5023148250088
4.0780000686646	-2.5162930411800
4.0869998931885	-2.5311517228623
4.0960001945496	-2.5468932853980
4.1050000190735	-2.5635176397300
4.1139998435974	-2.5810260556948
4.1230001449585	-2.5994193738481
4.1319999694824	-2.6186968897424
4.1409997940063	-2.6388543530417
4.1500000953674	-2.6598932867389
4.1589999198914	-2.6818095561110
4.1680002212524	-2.7045991762336
4.1770000457764	-2.7282603969999
4.1859998703003	-2.7527858837306
4.1950001716614	-2.7781726880471
4.2039999961853	-2.8044131087716
4.2129998207092	-2.8314998959192
4.2220001220703	-2.8594276829112
4.2309999465942	-2.8881882445978
4.2399997711182	-2.9177689633742
4.2490000724792	-2.9481649780841
4.2579998970032	-2.9793623588823
4.2670001983643	-3.0113523573594
4.2760000228882	-3.0441217671870
4.2849998474121	-3.0776580587921
4.2940001487732	-3.1119485404266
4.3029999732971	-3.1469778022708
4.3119997978210	-3.1827314981212
4.3210000991821	-3.2191945384124
4.3299999237061	-3.2563500332103
4.3390002250671	-3.2941812913460
4.3480000495911	-3.3326692019784
4.3569998741150	-3.3717967119219
4.3660001754761	-3.4115441396219
4.3750000000000	-3.4518915709760
4.3839998245239	-3.4928171901417
4.3930001258850	-3.5343016078573
4.4019999504089	-3.5763215558109
4.4109997749329	-3.6188553816872
4.4200000762939	-3.6618788207422
4.4289999008179	-3.7053692885895
4.4380002021790	-3.7493016796077
4.4470000267029	-3.7936516298651
4.4559998512268	-3.8383915803483
4.4650001525879	-3.8834971816395
4.4739999771118	-3.9289421238492
4.4829998016357	-3.9747007864230
4.4920001029968	-4.0207437962783
4.5009999275208	-4.0670444312513
4.5100002288818	-4.1135741530318
4.5190000534058	-4.1603056141456
4.5279998779297	-4.2072085817734
4.5370001792908	-4.2542565772951
4.5460000038147	-4.3014175139054
4.5549998283386	-4.3486645685096
4.5640001296997	-4.3959684477488
4.5729999542236	-4.4432963006672
4.5819997787476	-4.4906219114881
4.5910000801086	-4.5379160395464
4.5999999046326	-4.5851471853781
4.6090002059937	-4.6322847060381
4.6180000305176	-4.6793033192831
4.6269998550415	-4.7261703603267
4.6360001564026	-4.7728563975705
4.6449999809265	-4.8193352177071
4.6539998054504	-4.8655740910917
4.6630001068115	-4.9115489802942
4.6719999313354	-4.9572286934005
4.6810002326965	-5.0025876635774
4.6900000572205	-5.0475981197828
4.6989998817444	-5.0922306544864
4.7080001831055	-5.1364610352151
4.7170000076294	-5.1802643940457
4.7259998321533	-5.2236149330952
4.7350001335144	-5.2664849294960
4.7439999580383	-5.3088541952528
4.7529997825623	-5.3506971660383
4.7620000839233	-5.3919911730953
4.7709999084473	-5.4327152263499
4.7800002098083	-5.4728477134707
4.7890000343323	-5.5123664707418
4.7979998588562	-5.5512537762353
4.8070001602173	-5.5894888107704
4.8159999847412	-5.6270562960669
4.8249998092651	-5.6639376475784
4.8340001106262	-5.7001160691011
4.8429999351501	-5.7355774159277
4.8520002365112	-5.7703072271293
4.8610000610352	-5.8042918909124
4.8699998855591	-5.8375184721754
4.8790001869202	-5.8699766923596
4.8880000114441	-5.9016552882636
4.8969998359680	-5.9325477318263
4.9060001373291	-5.9626420857556
4.9149999618530	-5.9919344467695
4.9239997863770	-6.0204159178388
4.9330000877380	-6.0480842956816
4.9419999122620	-6.0749340285131
4.9510002136230	-6.1009633691547
4.9600000381470	-6.1261708045663
4.9689998626709	-6.1505549903526
4.9780001640320	-6.1741172826911
4.9869999885559	-6.1968591230633
4.9959998130798	-6.2187833009903
5.0050001144409	-6.2398945458479
5.0139999389648	-6.2601967231339
5.0229997634888	-6.2796968520192
5.0320000648499	-6.2984028218926
5.0409998893738	-6.3163219497985
5.0500001907349	-6.3334641880165
5.0590000152588	-6.3498396920192
5.0679998397827	-6.3654600274135
5.0770001411438	-6.3803378809701
5.0859999656677	-6.3944881853855
5.0949997901917	-6.4079223450858
5.1040000915527	-6.4206602657338
5.1129999160767	-6.4327151675632
5.1220002174377	-6.4441065243964
5.1310000419617	-6.4548533790611
5.1399998664856	-6.4649716121595
5.1490001678467	-6.4744849455712
5.1579999923706	-6.4834128792524
5.1669998168945	-6.4917791140955
5.1760001182556	-6.4996050716875
5.1849999427795	-6.5069156270230
5.1939997673035	-6.5137333871020
5.2030000686646	-6.5200854654804
5.2119998931885	-6.5259978932067
5.2210001945496	-6.5314950615003
5.2300000190735	-6.5366071289130
5.2389998435974	-6.5413609466570
5.2480001449585	-6.5457848267054
5.2569999694824	-6.5499076487363
5.2659997940063	-6.5537609796896
5.2750000953674	-6.5573747969855
5.2839999198914	-6.5607796111635
5.2930002212524	-6.5640071998186
5.3020000457764	-6.5670906960224
5.3109998703003	-6.5700590815611
5.3200001716614	-6.5729494300790
5.3289999961853	-6.5757940460080
5.3379998207092	-6.5786264632507
5.3470001220703	-6.5814803876682
5.3559999465942	-6.5843915719363
5.3649997711182	-6.5873956338243
5.3740000724792	-6.5905271350866
5.3829998970032	-6.5938221738273
5.3920001983643	-6.5973176565926
5.4010000228882	-6.6010474455496
5.4099998474121	-6.6050515379363
5.4190001487732	-6.6093659215058
5.4279999732971	-6.6140281243564
5.4369997978210	-6.6190755685640
5.4460000991821	-6.6245476191453
5.4549999237061	-6.6304801099171
5.4640002250671	-6.6369153349699
5.4730000495911	-6.6438898967709
5.4819998741150	-6.6514430840572
5.4910001754761	-6.6596152387023
5.5000000000000	-6.6684462480636
5.5089998245239	-6.6779750307400
5.5180001258850	-6.6882444957757
5.5269999504089	-6.6992922637951
5.5359997749329	-6.7111621072559
5.5450000762939	-6.7238938361915
5.5539999008179	-6.7375306330112
5.5630002021790	-6.7521120089285
5.5720000267029	-6.7676841239433
5.5809998512268	-6.7842853968741
5.5900001525879	-6.8019637142196
5.5989999771118	-6.8207592496336
5.6079998016357	-6.8407186150223
5.6170001029968	-6.8618830689551
5.6259999275208	-6.8843015362104
5.6350002288818	-6.9080160840350
5.6440000534058	-6.9330725797057
5.6529998779297	-6.9595198202285
5.6620001792908	-6.9874040755811
5.6710000038147	-7.0167727123509
5.6799998283386	-7.0476719897824
5.6890001296997	-7.0801530924864
5.6979999542236	-7.1142646096122
5.7069997787476	-7.1500587870480
5.7160000801086	-7.1875821506163
5.7249999046326	-7.2268906750970
5.7340002059937	-7.2680332897002
5.7430000305176	-7.3110670405692
5.7519998550415	-7.3560415978338
5.7610001564026	-7.4030159380030
5.7699999809265	-7.4520441760034
5.7789998054504	-7.5031821932740
5.7880001068115	-7.5564932561667
5.7969999313354	-7.6120302792534
5.8060002326965	-7.6698568741305
5.8150000572205	-7.7300347381599
5.8239998817444	-7.7926246500546
5.8330001831055	-7.8576931072580
5.8420000076294	-7.9253054553383
5.8509998321533	-7.9955257127398
5.8600001335144	-8.0684273007002
5.8689999580383	-8.1440769587223
5.8779997825623	-8.2225454198583
5.8870000839233	-8.3039091287866
5.8959999084473	-8.3882420584355
5.9050002098083	-8.4756203835336
5.9140000343323	-8.5661242977932
5.9229998588562	-8.6598355050148
5.9320001602173	-8.7568346898427
5.9409999847412	-8.8572088386409
5.9499998092651	-8.9610470765060
5.9590001106262	-9.0684357335070
5.9679999351501	-9.1794691175231
5.9770002365112	-9.2942411251784
5.9860000610352	-9.4128503988400
5.9949998855591	-9.5353945610071
6.0040001869202	-9.6619769750367
6.0130000114441	-9.7927030530579
6.0219998359680	-9.9276775636290
6.0310001373291	-10.067011641527
6.0399999618530	-10.210817851027
6.0489997863770	-10.359209949835
6.0580000877380	-10.512301434271
6.0669999122620	-10.670215364743
6.0760002136230	-10.833066383788
6.0850000381470	-11.000975974684
6.0939998626709	-11.174062126923
6.1030001640320	-11.352447947286
6.1119999885559	-11.536245024694
6.1209998130798	-11.725570594675
6.1300001144409	-11.920533017751
6.1389999389648	-12.121233683725
6.1479997634888	-12.327764433027
6.1570000648499	-12.540206488552
6.1659998893738	-12.758618637763
6.1750001907349	-12.983043650468
6.1840000152588	-13.213494916231
6.1929998397827	-13.449949794587
6.2020001411438	-13.692343740261
6.2109999656677	-13.940556763172
6.2199997901917	-14.194403601061
6.2290000915527	-14.453617473531
6.2379999160767	-14.717829295749
6.2470002174377	-14.986552165004
6.2560000419617	-15.259153616575
6.2649998664856	-15.534829339177
6.2740001678467	-15.812566675474
6.2829999923706	-16.091122730317
6.2919998168945	-16.368977119876
6.3010001182556	-16.644305576475
6.3099999427795	-16.914948424946
6.3189997673035	-17.178389387108
6.3280000686646	-17.431748223276
6.3369998931885	-17.671803185647
6.3460001945496	-17.895034464658
6.3550000190735	-18.097713009648
6.3639998435974	-18.276038287786
6.3730001449585	-18.426302460265
6.3819999694824	-18.545105557302
6.3909997940063	-18.629573538933
